* Measurement data measured by REW V5.31.1
* Source: Scarlett 2i4 USB, MICROPHONE, R, volume: no control
* Format: 512k Log Swept Sine, 1 sweep at -18.0 dBFS with no timing reference
* Dated: May 16, 2024 7:50:54 AM
* REW Settings:
*  C-weighting compensation: Off
*  Target level: 75.0 dB
* Note: ; 
* Measurement: bns-back12-side12-p1-sr
* Smoothing: None
* Frequency Step: 0.3364563 Hz
* Start Frequency: 10.093689 Hz
*
* Freq(Hz) SPL(dB) Phase(degrees)
10.093689 77.343 10.0466
10.430145 77.889 6.2357
10.766602 78.521 1.9947
11.103058 79.093 -3.1014
11.439514 79.455 -8.6323
11.775970 79.535 -13.5299
12.112427 79.388 -16.3963
12.448883 79.261 -16.1461
12.785339 79.541 -13.4140
13.121796 80.412 -11.1504
13.458252 81.608 -11.9966
13.794708 82.735 -16.2080
14.131165 83.557 -22.6597
14.467621 83.990 -30.0496
14.804077 84.037 -37.2499
15.140533 83.757 -43.3238
15.476990 83.264 -47.5826
15.813446 82.716 -49.8116
16.149902 82.261 -50.5234
16.486359 81.946 -50.7699
16.822815 81.681 -51.3974
17.159271 81.321 -52.4849
17.495728 80.759 -53.4209
17.832184 79.971 -53.2722
18.168640 79.023 -51.1599
18.505096 78.045 -46.6317
18.841553 77.156 -39.8060
19.178009 76.393 -30.8095
19.514465 75.825 -18.9551
19.850922 75.801 -3.6660
20.187378 76.793 12.2413
20.523834 78.614 23.7356
20.860291 80.591 29.4781
21.196747 82.306 31.2604
21.533203 83.652 31.1424
21.869659 84.677 30.5868
22.206116 85.492 30.4013
22.542572 86.217 30.7647
22.879028 86.920 31.4067
23.215485 87.598 32.0400
23.551941 88.215 32.7676
23.888397 88.780 34.0887
24.224854 89.403 36.4144
24.561310 90.251 39.3334
24.897766 91.397 41.4387
25.234222 92.714 41.3489
25.570679 93.974 38.7258
25.907135 94.991 34.1769
26.243591 95.671 28.7264
26.580048 95.999 23.5179
26.916504 96.043 19.6959
27.252960 95.982 18.1431
27.589417 96.087 18.7972
27.925873 96.571 20.0669
28.262329 97.375 19.7841
28.598785 98.240 16.9419
28.935242 98.925 11.9108
29.271698 99.298 5.6518
29.608154 99.320 -0.7953
29.944611 99.009 -6.4496
30.281067 98.445 -10.4377
30.617523 97.771 -12.1607
30.953979 97.176 -11.6383
31.290436 96.808 -9.7102
31.626892 96.683 -7.5532
31.963348 96.711 -5.8541
32.299805 96.805 -4.6302
32.636261 96.944 -3.6963
32.972717 97.137 -3.0911
33.309174 97.373 -3.0815
33.645630 97.594 -3.8496
33.982086 97.725 -5.2318
34.318542 97.725 -6.7290
34.654999 97.614 -7.7263
34.991455 97.481 -7.8243
35.327911 97.446 -7.1823
35.664368 97.579 -6.5692
36.000824 97.837 -6.8745
36.337280 98.097 -8.5015
36.673737 98.241 -11.2342
37.010193 98.197 -14.4873
37.346649 97.958 -17.5837
37.683105 97.569 -19.9518
38.019562 97.115 -21.2887
38.356018 96.684 -21.6771
38.692474 96.336 -21.5370
39.028931 96.067 -21.3524
39.365387 95.834 -21.3755
39.701843 95.596 -21.5602
40.038300 95.343 -21.7266
40.374756 95.098 -21.7811
40.711212 94.885 -21.8414
41.047668 94.709 -22.1880
41.384125 94.534 -23.0818
41.720581 94.304 -24.5968
42.057037 93.960 -26.5725
42.393494 93.463 -28.6655
42.729950 92.803 -30.4313
43.066406 92.001 -31.4099
43.402863 91.115 -31.2357
43.739319 90.230 -29.7877
44.075775 89.429 -27.3113
44.412231 88.751 -24.3417
44.748688 88.167 -21.3757
45.085144 87.613 -18.5545
45.421600 87.044 -15.6373
45.758057 86.469 -12.2481
46.094513 85.949 -8.2134
46.430969 85.551 -3.7772
46.767426 85.290 0.5269
47.103882 85.117 4.2833
47.440338 84.962 7.4687
47.776794 84.785 10.3614
48.113251 84.592 13.2626
48.449707 84.418 16.2772
48.786163 84.287 19.2987
49.122620 84.197 22.1801
49.459076 84.134 24.9092
49.795532 84.100 27.6017
50.131989 84.126 30.3171
50.468445 84.256 32.8680
50.804901 84.506 34.8252
51.141357 84.844 35.7421
51.477814 85.206 35.3827
51.814270 85.531 33.7566
52.150726 85.773 31.0070
52.487183 85.908 27.2920
52.823639 85.917 22.7338
53.160095 85.783 17.4294
53.496552 85.485 11.4921
53.833008 85.001 5.0904
54.169464 84.317 -1.5306
54.505920 83.428 -8.0495
54.842377 82.352 -14.0908
55.178833 81.135 -19.2808
55.515289 79.857 -23.3570
55.851746 78.619 -26.3106
56.188202 77.508 -28.4507
56.524658 76.564 -30.2275
56.861115 75.775 -31.8767
57.197571 75.123 -33.2085
57.534027 74.643 -33.7691
57.870483 74.438 -33.3112
58.206940 74.622 -32.2574
58.543396 75.211 -31.6075
58.879852 76.094 -32.2196
59.216309 77.105 -34.3005
59.552765 78.112 -37.5398
59.889221 79.042 -41.4610
60.225677 79.865 -45.6369
60.562134 80.578 -49.7586
60.898590 81.190 -53.6317
61.235046 81.717 -57.1537
61.571503 82.173 -60.2884
61.907959 82.570 -63.0442
62.244415 82.917 -65.4534
62.580872 83.219 -67.5518
62.917328 83.477 -69.3591
63.253784 83.692 -70.8684
63.590240 83.869 -72.0507
63.926697 84.018 -72.8779
64.263153 84.155 -73.3567
64.599609 84.296 -73.5558
64.936066 84.452 -73.6059
65.272522 84.621 -73.6640
65.608978 84.787 -73.8563
65.945435 84.927 -74.2345
66.281891 85.019 -74.7636
66.618347 85.046 -75.3408
66.954803 84.999 -75.8274
67.291260 84.881 -76.0803
67.627716 84.701 -75.9772
67.964172 84.477 -75.4357
68.300629 84.226 -74.4261
68.637085 83.965 -72.9745
68.973541 83.703 -71.1448
69.309998 83.441 -68.9980
69.646454 83.172 -66.5387
69.982910 82.888 -63.6819
70.319366 82.598 -60.2716
70.655823 82.334 -56.1694
70.992279 82.144 -51.3881
71.328735 82.075 -46.1836
71.665192 82.138 -40.9824
72.001648 82.299 -36.1477
72.338104 82.502 -31.7780
72.674561 82.705 -27.7015
73.011017 82.901 -23.6393
73.347473 83.121 -19.4146
73.683929 83.407 -15.0957
74.020386 83.779 -10.9744
74.356842 84.218 -7.3759
74.693298 84.675 -4.4517
75.029755 85.100 -2.1151
75.366211 85.466 -0.1250
75.702667 85.771 1.7810
76.039124 86.032 3.7818
76.375580 86.274 5.9376
76.712036 86.510 8.2314
77.048492 86.747 10.6523
77.384949 86.991 13.2471
77.721405 87.261 16.0809
78.057861 87.594 19.1181
78.394318 88.025 22.1169
78.730774 88.559 24.6655
79.067230 89.158 26.3800
79.403687 89.755 27.1063
79.740143 90.282 26.9714
80.076599 90.697 26.2965
80.413055 90.992 25.4670
80.749512 91.189 24.8137
81.085968 91.328 24.5192
81.422424 91.456 24.5670
81.758881 91.605 24.7682
82.095337 91.779 24.8733
82.431793 91.956 24.7044
82.768250 92.110 24.2209
83.104706 92.216 23.4951
83.441162 92.265 22.6420
83.777618 92.258 21.7580
84.114075 92.198 20.8994
84.450531 92.084 20.1012
84.786987 91.914 19.4161
85.123444 91.686 18.9400
85.459900 91.407 18.8015
85.796356 91.096 19.1135
86.132812 90.784 19.9085
86.469269 90.500 21.0952
86.805725 90.261 22.4801
87.142181 90.062 23.8524
87.478638 89.883 25.0772
87.815094 89.697 26.1341
88.151550 89.487 27.0886
88.488007 89.244 28.0358
88.824463 88.968 29.0578
89.160919 88.659 30.2149
89.497375 88.319 31.5635
89.833832 87.950 33.1758
90.170288 87.560 35.1403
90.506744 87.163 37.5344
90.843201 86.783 40.3848
91.179657 86.442 43.6419
91.516113 86.159 47.1893
91.852570 85.941 50.8815
92.189026 85.786 54.5825
92.525482 85.688 58.1785
92.861938 85.637 61.5722
93.198395 85.619 64.6834
93.534851 85.614 67.4684
93.871307 85.601 69.9453
94.207764 85.562 72.2016
94.544220 85.488 74.3729
94.880676 85.384 76.5976
95.217133 85.264 78.9669
95.553589 85.149 81.4911
95.890045 85.053 84.1016
96.226501 84.982 86.6911
96.562958 84.929 89.1660
96.899414 84.885 91.4793
97.235870 84.838 93.6273
97.572327 84.783 95.6242
97.908783 84.715 97.4798
98.245239 84.628 99.1995
98.581696 84.515 100.8002
98.918152 84.366 102.3281
99.254608 84.178 103.8587
99.591064 83.952 105.4762
99.927521 83.695 107.2454
100.263977 83.415 109.1946
100.600433 83.117 111.3260
100.936890 82.804 113.6466
101.273346 82.477 116.1944
101.609802 82.144 119.0315
101.946259 81.822 122.1957
102.282715 81.533 125.6380
102.619171 81.293 129.2023
102.955627 81.097 132.6845
103.292084 80.921 135.9446
103.628540 80.733 138.9884
103.964996 80.507 141.9632
104.301453 80.243 145.0771
104.637909 79.958 148.4913
104.974365 79.681 152.2378
105.310822 79.436 156.2121
105.647278 79.225 160.2533
105.983734 79.033 164.2563
106.320190 78.843 168.2309
106.656647 78.644 172.2724
106.993103 78.442 176.4818
107.329559 78.250 -179.1027
107.666016 78.080 -174.5128
108.002472 77.935 -169.8004
108.338928 77.810 -164.9784
108.675385 77.707 -160.0079
109.011841 77.637 -154.8464
109.348297 77.616 -149.5125
109.684753 77.661 -144.1129
110.021210 77.774 -138.8046
110.357666 77.947 -133.7250
110.694122 78.163 -128.9497
111.030579 78.407 -124.4973
111.367035 78.667 -120.3579
111.703491 78.933 -116.5090
112.039948 79.199 -112.9148
112.376404 79.458 -109.5256
112.712860 79.714 -106.2944
113.049316 79.970 -103.2031
113.385773 80.230 -100.2764
113.722229 80.493 -97.5646
114.058685 80.750 -95.1024
114.395142 80.988 -92.8751
114.731598 81.199 -90.8181
115.068054 81.382 -88.8512
115.404510 81.544 -86.9220
115.740967 81.691 -85.0278
116.077423 81.827 -83.2001
116.413879 81.946 -81.4620
116.750336 82.041 -79.7924
117.086792 82.108 -78.1257
117.423248 82.152 -76.3886
117.759705 82.184 -74.5485
118.096161 82.217 -72.6370
118.432617 82.252 -70.7271
118.769073 82.284 -68.8759
119.105530 82.300 -67.0758
119.441986 82.294 -65.2527
119.778442 82.270 -63.3127
120.114899 82.242 -61.2061
120.451355 82.227 -58.9662
120.787811 82.232 -56.6894
121.124268 82.252 -54.4683
121.460724 82.275 -52.3275
121.797180 82.291 -50.2145
122.133636 82.304 -48.0493
122.470093 82.327 -45.7984
122.806549 82.377 -43.5196
123.143005 82.457 -41.3416
123.479462 82.560 -39.3902
123.815918 82.664 -37.7165
124.152374 82.751 -36.2784
124.488831 82.813 -34.9791
124.825287 82.853 -33.7278
125.161743 82.880 -32.4853
125.498199 82.904 -31.2706
125.834656 82.927 -30.1319
126.171112 82.946 -29.1103
126.507568 82.956 -28.2226
126.844025 82.956 -27.4731
127.180481 82.942 -26.8752
127.516937 82.910 -26.4565
127.853394 82.850 -26.2383
128.189850 82.749 -26.2021
128.526306 82.595 -26.2706
128.862762 82.384 -26.3223
129.199219 82.125 -26.2399
129.535675 81.836 -25.9715
129.872131 81.536 -25.5684
130.208588 81.232 -25.1635
130.545044 80.911 -24.8897
130.881500 80.548 -24.7869
131.217957 80.116 -24.7593
131.554413 79.603 -24.6082
131.890869 79.021 -24.1226
132.227325 78.396 -23.1862
132.563782 77.760 -21.8456
132.900238 77.126 -20.2762
133.236694 76.477 -18.6399
133.573151 75.779 -16.9272
133.909607 75.006 -14.9037
134.246063 74.169 -12.2040
134.582520 73.324 -8.5548
134.918976 72.557 -4.0383
135.255432 71.924 0.8158
135.591888 71.406 5.3208
135.928345 70.910 9.0995
136.264801 70.335 12.2812
136.601257 69.619 15.3582
136.937714 68.752 18.9342
137.274170 67.772 23.5200
137.610626 66.741 29.4212
137.947083 65.726 36.7614
138.283539 64.789 45.6127
138.619995 64.022 55.9988
138.956451 63.556 67.5200
139.292908 63.476 78.9830
139.629364 63.698 88.9525
139.965820 64.009 96.8468
140.302277 64.215 103.1849
140.638733 64.234 109.0511
140.975189 64.110 115.5133
141.311646 63.981 123.1121
141.648102 63.999 131.4895
141.984558 64.200 139.6591
142.321014 64.485 146.9473
142.657471 64.724 153.5636
142.993927 64.877 160.3065
143.330383 65.024 167.8848
143.666840 65.312 176.2800
144.003296 65.833 -175.3722
144.339752 66.532 -168.0452
144.676208 67.280 -162.0207
145.012665 67.983 -156.9056
145.349121 68.631 -152.1418
145.685577 69.272 -147.4381
146.022034 69.963 -142.9144
146.358490 70.713 -138.9314
146.694946 71.487 -135.7731
147.031403 72.230 -133.4646
147.367859 72.903 -131.8210
147.704315 73.492 -130.5970
148.040771 74.005 -129.6042
148.377228 74.452 -128.7468
148.713684 74.841 -127.9888
149.050140 75.174 -127.2943
149.386597 75.452 -126.5914
149.723053 75.682 -125.7872
150.059509 75.883 -124.8216
150.395966 76.076 -123.7237
150.732422 76.276 -122.6199
151.068878 76.477 -121.6703
151.405334 76.657 -120.9693
151.741791 76.790 -120.4778
152.078247 76.857 -120.0305
152.414703 76.862 -119.4106
152.751160 76.829 -118.4577
153.087616 76.795 -117.1607
153.424072 76.789 -115.6786
153.760529 76.812 -114.2515
154.096985 76.842 -113.0500
154.433441 76.846 -112.0781
154.769897 76.801 -111.1915
155.106354 76.711 -110.2065
155.442810 76.597 -109.0261
155.779266 76.480 -107.7078
156.115723 76.366 -106.4196
156.452179 76.234 -105.2998
156.788635 76.045 -104.3219
157.125092 75.772 -103.2601
157.461548 75.415 -101.7699
157.798004 75.014 -99.5476
158.134460 74.632 -96.5132
158.470917 74.332 -92.9075
158.807373 74.131 -89.1743
159.143829 73.995 -85.6744
159.480286 73.873 -82.4811
159.816742 73.728 -79.4163
160.153198 73.559 -76.2379
160.489655 73.390 -72.8187
160.826111 73.246 -69.2039
161.162567 73.132 -65.5234
161.499023 73.036 -61.8418
161.835480 72.946 -58.0883
162.171936 72.871 -54.1302
162.508392 72.843 -49.9286
162.844849 72.894 -45.6445
163.181305 73.031 -41.5864
163.517761 73.226 -38.0239
163.854218 73.435 -35.0349
164.190674 73.619 -32.5032
164.527130 73.764 -30.2310
164.863586 73.878 -28.0630
165.200043 73.975 -25.9510
165.536499 74.062 -23.9335
165.872955 74.135 -22.0582
166.209412 74.179 -20.3090
166.545868 74.188 -18.5900
166.882324 74.165 -16.7737
167.218781 74.127 -14.7769
167.555237 74.098 -12.6156
167.891693 74.092 -10.4026
168.228149 74.108 -8.2822
168.564606 74.131 -6.3502
168.901062 74.144 -4.6141
169.237518 74.132 -3.0086
169.573975 74.092 -1.4420
169.910431 74.029 0.1624
170.246887 73.953 1.8448
170.583344 73.873 3.6064
170.919800 73.801 5.4103
171.256256 73.742 7.1812
171.592712 73.696 8.8150
171.929169 73.651 10.2089
172.265625 73.587 11.3110
172.602081 73.479 12.1619
172.938538 73.305 12.9023
173.274994 73.063 13.7394
173.611450 72.765 14.8802
173.947906 72.442 16.4528
174.284363 72.134 18.4468
174.620819 71.870 20.7086
174.957275 71.662 23.0070
175.293732 71.501 25.1274
175.630188 71.369 26.9297
175.966644 71.241 28.3502
176.303101 71.096 29.3762
176.639557 70.913 30.0349
176.976013 70.671 30.4012
177.312469 70.355 30.6057
177.648926 69.961 30.8177
177.985382 69.498 31.1988
178.321838 68.988 31.8392
178.658295 68.453 32.7158
178.994751 67.905 33.7104
179.331207 67.338 34.6975
179.667664 66.731 35.6465
180.004120 66.067 36.6603
180.340576 65.353 37.9111
180.677032 64.619 39.4929
181.013489 63.910 41.2682
181.349945 63.249 42.8325
181.686401 62.611 43.6780
182.022858 61.926 43.4405
182.359314 61.111 42.0189
182.695770 60.098 39.4992
183.032227 58.852 35.9704
183.368683 57.377 31.3043
183.705139 55.718 24.9129
184.041595 53.994 15.5480
184.378052 52.491 1.5389
184.714508 51.748 -17.4208
185.050964 52.195 -37.6561
185.387421 53.533 -54.3048
185.723877 55.135 -66.1141
186.060333 56.642 -74.1240
186.396790 57.947 -79.4719
186.733246 59.050 -82.9067
187.069702 59.992 -84.9009
187.406158 60.820 -85.7928
187.742615 61.578 -85.8799
188.079071 62.300 -85.4647
188.415527 63.004 -84.8559
188.751984 63.685 -84.3270
189.088440 64.323 -84.0584
189.424896 64.888 -84.1005
189.761353 65.356 -84.3795
190.097809 65.708 -84.7358
190.434265 65.944 -84.9745
190.770721 66.072 -84.9090
191.107178 66.111 -84.3935
191.443634 66.087 -83.3397
191.780090 66.024 -81.7197
192.116547 65.943 -79.5544
192.453003 65.860 -76.8896
192.789459 65.785 -73.7620
193.125916 65.724 -70.1716
193.462372 65.694 -66.0856
193.798828 65.721 -61.4980
194.135284 65.845 -56.5303
194.471741 66.092 -51.4891
194.808197 66.455 -46.7836
195.144653 66.891 -42.7207
195.481110 67.337 -39.3491
195.817566 67.748 -36.4704
196.154022 68.110 -33.7808
196.490479 68.446 -31.0439
196.826935 68.791 -28.2161
197.163391 69.173 -25.4573
197.499847 69.590 -23.0137
197.836304 70.013 -21.0504
198.172760 70.406 -19.5640
198.509216 70.741 -18.4106
198.845673 71.009 -17.3946
199.182129 71.218 -16.3485
199.518585 71.383 -15.1729
199.855042 71.521 -13.8333
200.191498 71.643 -12.3357
200.527954 71.760 -10.7062
200.864410 71.878 -8.9850
201.200867 72.001 -7.2259
201.537323 72.128 -5.4810
201.873779 72.251 -3.7740
202.210236 72.366 -2.0817
202.546692 72.471 -0.3500
202.883148 72.578 1.4570
203.219604 72.699 3.3071
203.556061 72.842 5.0925
203.892517 72.999 6.6835
204.228973 73.151 8.0101
204.565430 73.275 9.1110
204.901886 73.357 10.1144
205.238342 73.399 11.1682
205.574799 73.420 12.3599
205.911255 73.438 13.6723
206.247711 73.463 15.0021
206.584167 73.490 16.2366
206.920624 73.501 17.3317
207.257080 73.479 18.3425
207.593536 73.418 19.3900
207.929993 73.324 20.5959
208.266449 73.215 22.0202
208.602905 73.108 23.6354
208.939362 73.015 25.3488
209.275818 72.931 27.0608
209.612274 72.846 28.7187
209.948730 72.748 30.3376
210.285187 72.630 31.9821
210.621643 72.493 33.7278
210.958099 72.347 35.6240
211.294556 72.203 37.6730
211.631012 72.069 39.8327
211.967468 71.948 42.0410
212.303925 71.837 44.2476
212.640381 71.728 46.4374
212.976837 71.617 48.6317
213.313293 71.505 50.8666
213.649750 71.398 53.1599
213.986206 71.305 55.4847
214.322662 71.230 57.7672
214.659119 71.168 59.9150
214.995575 71.106 61.8627
215.332031 71.026 63.6082
215.668488 70.912 65.2202
216.004944 70.755 66.8156
216.341400 70.558 68.5171
216.677856 70.333 70.4108
217.014313 70.096 72.5196
217.350769 69.856 74.8078
217.687225 69.617 77.2203
218.023682 69.374 79.7332
218.360138 69.122 82.3827
218.696594 68.862 85.2503
219.033051 68.609 88.4073
219.369507 68.386 91.8489
219.705963 68.213 95.4632
220.042419 68.098 99.0667
220.378876 68.028 102.4896
220.715332 67.982 105.6477
221.051788 67.938 108.5520
221.388245 67.884 111.2643
221.724701 67.816 113.8453
222.061157 67.731 116.3306
222.397614 67.626 118.7450
222.734070 67.496 121.1307
223.070526 67.337 123.5591
223.406982 67.154 126.1139
223.743439 66.957 128.8553
224.079895 66.757 131.7985
224.416351 66.564 134.9231
224.752808 66.381 138.2092
225.089264 66.212 141.6608
225.425720 66.065 145.2888
225.762177 65.955 149.0643
226.098633 65.893 152.8887
226.435089 65.878 156.6235
226.771545 65.896 160.1694
227.108002 65.930 163.5205
227.444458 65.973 166.7451
227.780914 66.030 169.9037
228.117371 66.114 172.9685
228.453827 66.232 175.8162
228.790283 66.373 178.3040
229.126740 66.511 -179.6306
229.463196 66.620 -177.9275
229.799652 66.689 -176.4437
230.136108 66.720 -175.0371
230.472565 66.729 -173.6385
230.809021 66.730 -172.2710
231.145477 66.729 -171.0093
231.481934 66.719 -169.9136
231.818390 66.694 -168.9891
232.154846 66.647 -168.1998
232.491302 66.583 -167.5170
232.827759 66.508 -166.9592
233.164215 66.424 -166.5923
233.500671 66.321 -166.4852
233.837128 66.185 -166.6584
234.173584 66.001 -167.0632
234.510040 65.762 -167.6033
234.846497 65.472 -168.1841
235.182953 65.141 -168.7595
235.519409 64.780 -169.3510
235.855865 64.393 -170.0264
236.192322 63.975 -170.8519
236.528778 63.513 -171.8472
236.865234 62.995 -172.9683
237.201691 62.417 -174.1256
237.538147 61.786 -175.2220
237.874603 61.118 -176.1992
238.211060 60.438 -177.0771
238.547516 59.770 -177.9772
238.883972 59.128 -179.1110
239.220428 58.512 179.2683
239.556885 57.906 176.9392
239.893341 57.283 173.7802
240.229797 56.620 169.8018
240.566254 55.907 165.1399
240.902710 55.158 160.0211
241.239166 54.409 154.7112
241.575623 53.720 149.4552
241.912079 53.151 144.4294
242.248535 52.750 139.7271
242.584991 52.530 135.4109
242.921448 52.475 131.5822
243.257904 52.550 128.4052
243.594360 52.732 126.0455
243.930817 53.008 124.5715
244.267273 53.375 123.8926
244.603729 53.819 123.8058
244.940186 54.312 124.1245
245.276642 54.826 124.7844
245.613098 55.344 125.8373
245.949554 55.879 127.3372
246.286011 56.457 129.2061
246.622467 57.100 131.1870
246.958923 57.800 132.9413
247.295380 58.520 134.2231
247.631836 59.211 134.9843
247.968292 59.836 135.3564
248.304749 60.379 135.5569
248.641205 60.845 135.7883
248.977661 61.252 136.1732
249.314117 61.621 136.7323
249.650574 61.968 137.4089
249.987030 62.296 138.1259
250.323486 62.598 138.8385
250.659943 62.869 139.5571
250.996399 63.105 140.3306
251.332855 63.312 141.2073
251.669312 63.499 142.2010
252.005768 63.672 143.2816
252.342224 63.835 144.3958
252.678680 63.980 145.5046
253.015137 64.102 146.6105
253.351593 64.195 147.7540
253.688049 64.259 148.9871
254.024506 64.299 150.3401
254.360962 64.321 151.8086
254.697418 64.325 153.3721
255.033875 64.307 155.0287
255.370331 64.262 156.8191
255.706787 64.191 158.8182
256.043243 64.103 161.0933
256.379700 64.012 163.6615
256.716156 63.930 166.4785
257.052612 63.861 169.4774
257.389069 63.799 172.6309
257.725525 63.740 175.9792
258.061981 63.690 179.6000
258.398438 63.669 -176.4695
258.734894 63.697 -172.2903
259.071350 63.789 -168.0093
259.407806 63.940 -163.7773
259.744263 64.137 -159.6714
260.080719 64.373 -155.6917
260.417175 64.650 -151.8315
260.753632 64.974 -148.1470
261.090088 65.349 -144.7671
261.426544 65.760 -141.8337
261.763000 66.184 -139.4271
262.099457 66.595 -137.5353
262.435913 66.972 -136.0750
262.772369 67.306 -134.9360
263.108826 67.592 -134.0160
263.445282 67.835 -133.2368
263.781738 68.039 -132.5475
264.118195 68.209 -131.9242
264.454651 68.349 -131.3699
264.791107 68.462 -130.9078
265.127563 68.543 -130.5646
265.464020 68.583 -130.3433
265.800476 68.573 -130.2058
266.136932 68.506 -130.0735
266.473389 68.383 -129.8546
266.809845 68.214 -129.4829
267.146301 68.007 -128.9470
267.482758 67.770 -128.2872
267.819214 67.498 -127.5537
268.155670 67.177 -126.7485
268.492126 66.793 -125.7926
268.828583 66.340 -124.5367
269.165039 65.824 -122.8146
269.501495 65.265 -120.5051
269.837952 64.684 -117.5647
270.174408 64.097 -113.9993
270.510864 63.509 -109.7908
270.847321 62.930 -104.8428
271.183777 62.387 -99.0188
271.520233 61.931 -92.2716
271.856689 61.619 -84.7732
272.193146 61.487 -76.9042
272.529602 61.537 -69.0886
272.866058 61.746 -61.6445
273.202515 62.087 -54.7875
273.538971 62.528 -48.6975
273.875427 63.029 -43.5099
274.211884 63.538 -39.2377
274.548340 64.011 -35.7307
274.884796 64.420 -32.7253
275.221252 64.767 -29.9486
275.557709 65.071 -27.2188
275.894165 65.357 -24.4955
276.230621 65.642 -21.8542
276.567078 65.924 -19.4014
276.903534 66.188 -17.1857
277.239990 66.419 -15.1642
277.576447 66.607 -13.2273
277.912903 66.757 -11.2538
278.249359 66.881 -9.1616
278.585815 66.995 -6.9320
278.922272 67.112 -4.6046
279.258728 67.239 -2.2502
279.595184 67.374 0.0615
279.931641 67.512 2.2870
280.268097 67.645 4.4188
280.604553 67.767 6.4817
280.941010 67.876 8.5153
281.277466 67.978 10.5522
281.613922 68.076 12.5972
281.950378 68.177 14.6227
282.286835 68.280 16.5829
282.623291 68.380 18.4414
282.959747 68.471 20.1929
283.296204 68.547 21.8647
283.632660 68.605 23.4979
283.969116 68.648 25.1208
284.305573 68.681 26.7345
284.642029 68.704 28.3207
284.978485 68.713 29.8662
285.314941 68.703 31.3855
285.651398 68.672 32.9230
285.987854 68.620 34.5319
286.324310 68.557 36.2437
286.660767 68.490 38.0485
286.997223 68.424 39.9015
287.333679 68.357 41.7550
287.670135 68.281 43.5923
288.006592 68.188 45.4431
288.343048 68.078 47.3679
288.679504 67.956 49.4259
289.015961 67.830 51.6426
289.352417 67.712 53.9980
289.688873 67.608 56.4399
290.025330 67.516 58.9121
290.361786 67.433 61.3809
290.698242 67.354 63.8459
291.034698 67.275 66.3331
291.371155 67.199 68.8760
291.707611 67.134 71.4907
292.044067 67.089 74.1558
292.380524 67.072 76.7998
292.716980 67.084 79.3174
293.053436 67.115 81.6062
293.389893 67.148 83.6150
293.726349 67.164 85.3685
294.062805 67.151 86.9567
294.399261 67.108 88.4879
294.735718 67.044 90.0336
295.072174 66.972 91.5895
295.408630 66.900 93.0834
295.745087 66.820 94.4285
296.081543 66.719 95.5887
296.417999 66.578 96.6133
296.754456 66.388 97.6190
297.090912 66.154 98.7352
297.427368 65.891 100.0441
297.763824 65.616 101.5453
298.100281 65.341 103.1694
298.436737 65.068 104.8259
298.773193 64.789 106.4525
299.109650 64.495 108.0325
299.446106 64.180 109.5773
299.782562 63.839 111.1027
300.119019 63.464 112.6238
